sweep_type,model,context_length,horizon,rr_context_beats,rr_horizon_beats,rmse,mae,window_rmse_mean,window_mae_mean,num_windows,num_series,rr_rmse,rr_mae,rr_window_rmse_mean,rr_window_mae_mean,rr_ks_mean,rr_ks_cutoff_mean,rr_ks_pass_rate,waveform_rr_rmse,waveform_rr_mae,waveform_rr_window_rmse_mean,waveform_rr_window_mae_mean,waveform_rr_ks_mean,waveform_rr_ks_cutoff_mean,waveform_rr_ks_pass_rate
waveform_context,TimesFM,2048,256,2048,256,0.30994534658061135,0.1528429782225026,0.27997646099376855,0.15284297978359973,576,1152,25.549463033676147,13.599008599917093,21.902925997144646,13.599008728232649,0.49338554349491887,0.08499999999999999,0.0,21.109242253833347,12.906863848368326,16.086885543151382,14.313487080111258,0.514548224777712,0.8617619990672115,0.869865309692837
waveform_context,Chronos-2,2048,256,2048,256,0.3067043481601609,0.14443976473477152,0.2733745581095314,0.1444397651903273,576,1152,31.297218879063923,18.11926417880588,27.2327509795626,18.119264068702858,0.42548659642208325,0.08499999999999999,0.0,18.044691297743057,10.758888430065578,12.79869398698202,11.111244106610375,0.5017304471839157,0.8670177433120743,0.8804197487502784
waveform_context,Moirai 2.0,2048,256,2048,256,0.301298841006226,0.15086089074611664,0.2764488958960606,0.15086089183265963,576,1152,62.90135129292806,47.614415910508896,61.577437269190945,47.614415706859695,0.47695551595117724,0.08499999999999999,0.0,20.63010819753011,14.410393807623121,17.83849789455303,15.705760602526746,0.437820351605849,1.0027873916522003,0.9642212704611386
waveform_context,TimesFM,2048,512,2048,512,0.3227211932341258,0.16822455326716104,0.2980736670967114,0.16822455426558414,576,1152,28.924368222554524,12.94523557027181,26.253984928131104,12.945235514806377,0.4386977711723944,0.06010407640085653,0.0,25.27558077706231,12.755490329530504,18.470400427903435,14.846775828612484,0.5539992728977978,0.6200699352089428,0.5966075380187016
waveform_context,Chronos-2,2048,512,2048,512,0.31050168805652195,0.15511978334850735,0.2839804430041113,0.15511978278259952,576,1152,52.480465253194176,32.833822356330025,50.735917430784966,32.8338220583068,0.4618688089496683,0.06010407640085653,0.0,25.83248387442695,12.687834607230293,17.245404551064667,13.617026685408984,0.46179087034398986,0.663879709204708,0.7992472373886548
waveform_context,Moirai 2.0,2048,512,2048,512,0.30780355383952457,0.16344088109003174,0.28755466798449764,0.16344087767194854,576,1152,80.97384262084961,65.11100239223904,79.80959231116705,65.11100271426969,0.6072288698108925,0.06010407640085653,0.0,30.903738286760117,15.707293377982246,22.222331762679772,18.89967883679616,0.49110710420681325,0.8212180627889236,0.7909197856014836
waveform_context,TimesFM,2048,1024,2048,1024,0.3316047324074639,0.17884067942698798,0.3083613967222239,0.1788406808191212,576,1152,43.847959995269775,14.117924531300863,40.767668756345905,14.117924996134308,0.39642291733417284,0.042499999999999996,0.0,32.49441485934787,13.021685467825996,23.408937371532126,17.588207589717502,0.5572389697447575,0.48560959519887675,0.338249292399158
waveform_context,Chronos-2,2048,1024,2048,1024,0.3134294268157747,0.16194154487715828,0.2901168458128167,0.16194154320692178,576,1152,84.32691404554579,53.216728422376846,82.1707360032532,53.2167287973894,0.5087174877073102,0.042499999999999996,0.0,45.10225539737277,17.427012496524387,31.166737847697718,23.132094799000434,0.4407780446137847,0.5833581264913819,0.6914655233117384
waveform_context,Moirai 2.0,2048,1024,2048,1024,0.31677743792533875,0.17442703247070312,0.29729304431627196,0.17442703093466763,576,1152,87.6792761484782,56.052361806233726,80.06558055099514,56.05236084221138,0.6663555485269863,0.042499999999999996,0.0,52.11483987172445,19.94693946838379,37.65203500647657,31.655602126396087,0.5180649010692188,0.7471897088222622,0.6126653165641894
waveform_context,TimesFM,4096,256,4096,256,0.30198680361111957,0.15138780822356543,0.28156829719147125,0.151387809342446,576,1152,18.68490587340461,8.997748851776123,17.996156994667317,8.997748927109772,0.458723111252238,0.08499999999999999,0.0,20.23510477277968,12.659262233310276,15.576597510556159,13.645491459125433,0.5085696606762669,0.8574171139792469,0.8718989261029109
waveform_context,Chronos-2,4096,256,4096,256,0.2947565375102891,0.14144407999184397,0.27117822703763117,0.14144408163459352,576,1152,25.65216000874837,12.862663560443455,22.510903370463186,12.862663694967827,0.3759654042859026,0.08499999999999999,0.0,17.553802967071533,10.812498993343777,12.541953453129379,10.848201546593877,0.4886350424819201,0.8749173192414147,0.8892820288039418
waveform_context,Moirai 2.0,4096,256,4096,256,0.29083992044130963,0.14566610960496795,0.2729675334283254,0.14566611110866587,576,1152,66.19468879699707,51.96822844611274,65.62742068370183,51.96822872261206,0.5205136257522924,0.08499999999999999,0.0,19.592746920055813,14.401705741882324,17.511325642508552,15.32043003922068,0.43713417819006195,0.9965934123726049,0.9708143348440691
waveform_context,TimesFM,4096,512,4096,512,0.31473757823308307,0.16505517520838314,0.2953968657594588,0.1650551781025974,576,1152,24.51991319656372,10.5577777756585,23.969190899282694,10.557777778142029,0.4188974307889021,0.06010407640085653,0.0,25.253923575083416,13.195417218738132,18.83651132353693,15.189880178456049,0.5488849664918695,0.6264644378453261,0.6055358981954808
waveform_context,Chronos-2,4096,512,4096,512,0.29870261831416023,0.15033824369311333,0.279091900790162,0.15033824283293346,576,1152,46.46947977277968,26.894258234235977,44.62656609465679,26.89425823175245,0.4206488263750258,0.06010407640085653,0.0,29.00963258743286,13.400937530729506,18.26956737691034,14.323234318747158,0.4488159623333641,0.699373058480983,0.8356317785289759
waveform_context,Moirai 2.0,4096,512,4096,512,0.29992857989337707,0.157925919112232,0.2832269685006597,0.15792592059329358,576,1152,82.05074628194173,67.1289136674669,81.0584727389117,67.12891290295455,0.6340020818262118,0.06010407640085653,0.0,30.071058803134495,14.88311841752794,21.54114240416099,18.399964872830466,0.48579141084470134,0.8169478084653775,0.7930646435452864
waveform_context,TimesFM,4096,1024,4096,1024,0.32071145955059266,0.17316739136974016,0.30123883461864254,0.17316738776086518,576,1152,42.49267503950331,12.806873612933689,40.72954146564007,12.80687377643254,0.3864979216815156,0.042499999999999996,0.0,30.46704583697849,12.792836864789328,22.995855986397164,17.34748565007117,0.545984006225983,0.5077367893988736,0.3984815611077069
waveform_context,Chronos-2,4096,1024,4096,1024,0.3059159161316024,0.15783865087562138,0.2863618900559636,0.15783865045846646,576,1152,84.8690562778049,52.92259746127658,83.36674936612447,52.92259686936935,0.5046631731320637,0.042499999999999996,0.0,50.18227926890055,20.088299062516953,32.3833236675731,23.932895067549573,0.43868927217786646,0.6403360452438652,0.7383792737360886
waveform_context,Moirai 2.0,4096,1024,4096,1024,0.3107462359799279,0.16973964621623358,0.29311297936106306,0.16973964420160176,576,1152,88.60946485731337,56.79283618927002,81.03426979896095,56.792836517923405,0.669325322209261,0.042499999999999996,0.0,43.303427113427055,17.050766468048096,30.39004421387584,24.851655325151665,0.5102844432932115,0.7483307624412651,0.6283088847309651
waveform_context,TimesFM,8192,256,8192,256,0.29235752092467415,0.14505651055110824,0.27445958643349716,0.14505651094239308,576,1152,19.098145935270523,8.761866476800707,18.544253056248028,8.761866444928778,0.4027894431855732,0.08499999999999999,0.001736111111111111,26.938574102189804,13.389110114839342,17.42068660193077,15.196750051738876,0.49451342097391776,0.8596385503379008,0.8922632335019149
waveform_context,Chronos-2,8192,256,8192,256,0.28094275626871323,0.1354001582496696,0.2629138131483665,0.13540015975013375,576,1152,22.260233336024815,10.109091308381823,20.238508014836246,10.109091243396202,0.33309961850406755,0.08499999999999999,0.0,24.725521061155533,11.956141021516588,14.827733969081383,12.650146423763887,0.4729663784217987,0.8820622367195596,0.9045196057298625
waveform_context,Moirai 2.0,8192,256,8192,256,0.2850021736489402,0.14108072966337204,0.2689617441307443,0.14108072929795729,576,1152,70.26993666754828,56.613986545138886,69.97462122307883,56.61398697561688,0.5593695493260183,0.08499999999999999,0.0,27.665832148657906,16.118385950724285,19.146521813516404,16.607200614401634,0.43859000987125984,1.015282705013401,0.9694498502896673
waveform_context,TimesFM,8192,512,8192,512,0.30428016516897416,0.1588788487844997,0.2879398590109001,0.1588788474360222,576,1152,23.65883223215739,10.256462785932753,23.42804485352503,10.256462794418136,0.3904106639650235,0.06010407640085653,0.0,25.19984112845527,12.978458033667671,18.533257143842583,14.928993211881151,0.5403696279449924,0.6252992472665839,0.626560235201291
waveform_context,Chronos-2,8192,512,8192,512,0.2894900408056047,0.14664958831336763,0.2748248515288449,0.14664959083569962,576,1152,30.522421677907307,14.806249433093601,28.483219353689087,14.80624958500266,0.37605332516838463,0.06010407640085653,0.0,29.844972981346977,14.252576192220053,19.29867473588207,15.009766301376894,0.44671750843798147,0.6993601073000552,0.8354658517801301
waveform_context,Moirai 2.0,8192,512,8192,512,0.2934585569633378,0.15382717011703384,0.27913720459522057,0.1538271744696734,576,1152,84.46279504564073,70.85101826985677,84.19036970535915,70.8510189909074,0.6925405000089191,0.06010407640085653,0.0,22.577013704511856,12.490947590933906,17.226870509027837,14.066240011057614,0.47492041339662183,0.8498778049395949,0.8162031474849478
waveform_context,TimesFM,8192,1024,8192,1024,0.31357039759556454,0.16809185221791267,0.29568624671729693,0.16809185272884658,576,1152,43.690650913450455,12.635288953781128,42.699146035644745,12.635289270016882,0.3730714292494375,0.042499999999999996,0.0,32.28807828161452,13.455339789390564,23.77010197672332,17.83064227188646,0.5397095707813389,0.519857378692857,0.4093182652770077
waveform_context,Chronos-2,8192,1024,8192,1024,0.2991517144772742,0.15467287144727176,0.2833118753494798,0.15467287483625114,576,1152,75.46319325764973,39.91432645585802,74.26855726374521,39.9143272522423,0.469025364049887,0.042499999999999996,0.0,52.099147160847984,20.91286892361111,34.560961643772416,25.510860040837386,0.44075522168850023,0.6338331608531159,0.7347126024043583
waveform_context,Moirai 2.0,8192,1024,8192,1024,0.3053380043970214,0.16539523584975135,0.2889446128327917,0.16539523765742262,576,1152,96.79838667975531,67.13526047600641,92.47854124340746,67.13526173225708,0.7351097771728226,0.042499999999999996,0.0,37.64868672688802,15.295730458365547,24.67990862624366,18.490341577392638,0.4940724079386698,0.7941548813349286,0.6740559855102226
