subject_id,sweep_type,model,context_length,horizon,rr_context_beats,rr_horizon_beats,rmse,mae,window_rmse_mean,window_mae_mean,num_windows,num_series,rr_rmse,rr_mae,rr_window_rmse_mean,rr_window_mae_mean,rr_ks_mean,rr_ks_cutoff_mean,rr_ks_pass_rate,waveform_rr_rmse,waveform_rr_mae,waveform_rr_window_rmse_mean,waveform_rr_window_mae_mean,waveform_rr_ks_mean,waveform_rr_ks_cutoff_mean,waveform_rr_ks_pass_rate
17453,waveform_context,TimesFM,2048,256,2048,256,0.3614613115787506,0.16165632009506226,0.34176734113134444,0.1616563246352598,32,64,6.409114360809326,4.95677375793457,6.381829157471657,4.956774011254311,0.2955039894034486,0.08499999999999999,0.0,22.279953002929688,12.530488014221191,16.45861906837672,14.557291697710752,0.5041810477685256,0.857596168116107,0.84375
17453,waveform_context,Chronos-2,2048,256,2048,256,0.3319375813007355,0.137764111161232,0.3141458991449326,0.13776410382706672,32,64,20.03402328491211,13.490991592407227,15.995712846517563,13.490991964936256,0.43588107874629484,0.08499999999999999,0.0,18.28225326538086,10.333333015441895,11.23097351193428,9.93154758640698,0.4473714386607539,0.861772152275875,0.953125
17453,waveform_context,Moirai 2.0,2048,256,2048,256,0.3362230062484741,0.14041344821453094,0.31810831325128675,0.14041344868019223,32,64,59.479705810546875,48.13925552368164,59.2828768491745,48.13925385475159,0.4457969958687115,0.08499999999999999,0.0,16.29186248779297,10.309734344482422,12.151366270106772,10.384057920912038,0.46137580734121747,0.9332747213384694,0.8771929824561403
17453,waveform_context,TimesFM,2048,512,2048,512,0.35130247473716736,0.1661229431629181,0.3352662120014429,0.16612293710932136,32,64,8.419367790222168,6.177388668060303,8.388836964964867,6.177388742566109,0.2208168158081848,0.060104076400856535,0.0,35.11205291748047,17.150327682495117,29.34772628173232,23.86041670292616,0.5627588830968984,0.6309987254919316,0.640625
17453,waveform_context,Chronos-2,2048,512,2048,512,0.32920631766319275,0.1457359492778778,0.31318996893242,0.14573594275861979,32,64,48.25031280517578,36.56746292114258,47.34449362754822,36.567462623119354,0.5043710545575121,0.060104076400856535,0.0,21.31838035583496,11.699999809265137,13.782252775539051,11.625454542853616,0.42908793521992417,0.6958432786323994,0.8688524590163934
17453,waveform_context,Moirai 2.0,2048,512,2048,512,0.3379020094871521,0.1545352339744568,0.3220079594757408,0.15453524223994464,32,64,79.81575012207031,71.64893341064453,79.77266335487366,71.64893388748169,0.6087573344890035,0.060104076400856535,0.0,15.191475868225098,10.076190948486328,12.300747226585042,9.979870135133917,0.47115937053959944,0.7809593309314635,0.7543859649122807
17453,waveform_context,TimesFM,2048,1024,2048,1024,0.3531284034252167,0.17359402775764465,0.3370313097257167,0.1735940466169268,32,64,15.151737213134766,11.426067352294922,15.139501363039017,11.426066488027573,0.346631168759326,0.042499999999999996,0.0,32.381935119628906,13.447863578796387,27.489792563021183,19.623419243842363,0.5333017849971879,0.48839315093588265,0.359375
17453,waveform_context,Chronos-2,2048,1024,2048,1024,0.3311261534690857,0.15198470652103424,0.3156222540419549,0.15198469790630043,32,64,74.7134780883789,63.225975036621094,74.02808272838593,63.225974559783936,0.5646444700036634,0.042499999999999996,0.0,20.22746467590332,11.820809364318848,14.880948653587929,12.827793066318218,0.3985562543114601,0.667184998776033,0.8360655737704918
17453,waveform_context,Moirai 2.0,2048,1024,2048,1024,0.33967429399490356,0.16788631677627563,0.3261162450071424,0.1678863111883402,32,64,80.08778381347656,68.19291687011719,72.81073078513145,68.19291353225708,0.7302550269531249,0.042499999999999996,0.0,16.212657928466797,10.5,13.347802319177767,10.482525569636648,0.49440769837365045,0.6567145556495038,0.5660377358490566
17453,waveform_context,TimesFM,4096,256,4096,256,0.3569205403327942,0.1595078408718109,0.33696528477594256,0.1595078418031335,32,64,6.359898090362549,4.850736618041992,6.327795892953873,4.850736513733864,0.2842950511652606,0.08499999999999999,0.0,19.255420684814453,11.803921699523926,15.644347043832143,14.063888879617055,0.5138623173889789,0.8720682528680105,0.8688524590163934
17453,waveform_context,Chronos-2,4096,256,4096,256,0.33250272274017334,0.13949069380760193,0.31447221455164254,0.13949069660156965,32,64,15.351329803466797,11.26758861541748,13.144483163952827,11.267588838934898,0.43970491187875005,0.08499999999999999,0.0,20.919546127319336,12.882352828979492,12.14899346284699,10.824561334492868,0.41807770956765195,0.9148255929950495,0.9032258064516129
17453,waveform_context,Moirai 2.0,4096,256,4096,256,0.3387466073036194,0.14381542801856995,0.32001717877574265,0.14381543139461428,32,64,60.677879333496094,49.528961181640625,60.47658431529999,49.52896440029144,0.48206154816689883,0.08499999999999999,0.0,20.54989242553711,12.990385055541992,17.030648640223912,14.634920659519377,0.42734323180857714,0.9382595453849287,0.9464285714285714
17453,waveform_context,TimesFM,4096,512,4096,512,0.3495880365371704,0.16423112154006958,0.33403686131350696,0.1642311222385615,32,64,8.661617279052734,6.371557712554932,8.634229108691216,6.371557772159576,0.22152754796879315,0.060104076400856535,0.0,25.0255184173584,14.326241493225098,23.24476544440739,18.579894160467482,0.5160153393259207,0.7027226355740118,0.625
17453,waveform_context,Chronos-2,4096,512,4096,512,0.32805511355400085,0.14471220970153809,0.31202815216965973,0.14471220434643328,32,64,38.38534927368164,28.26563262939453,36.83098828792572,28.265632927417755,0.4986314608335007,0.060104076400856535,0.0,18.191370010375977,10.55555534362793,11.82179738866522,10.388297887558632,0.4106162093875645,0.7885028617397165,0.9333333333333333
17453,waveform_context,Moirai 2.0,4096,512,4096,512,0.3368131220340729,0.1532491147518158,0.3207758883945644,0.1532491104444489,32,64,79.75692749023438,71.46748352050781,79.73139977455139,71.4674881696701,0.6255840323095359,0.060104076400856535,0.0,16.43655014038086,10.791261672973633,13.960992774298024,11.536821698033533,0.43246689678411265,0.7841922773013587,0.7678571428571429
17453,waveform_context,TimesFM,4096,1024,4096,1024,0.3467511236667633,0.16710656881332397,0.3319161783438176,0.16710655856877565,32,64,15.229157447814941,11.525562286376953,15.217058211565018,11.525563031435013,0.36306414695997447,0.042499999999999996,0.0,28.227060317993164,13.406779289245605,25.345749547404626,18.55494345772651,0.528562701081462,0.579313350247335,0.5079365079365079
17453,waveform_context,Chronos-2,4096,1024,4096,1024,0.33086931705474854,0.15031595528125763,0.3152436895761639,0.15031596273183823,32,64,71.44959259033203,60.091712951660156,71.14756369590759,60.09171259403229,0.584340745752339,0.042499999999999996,0.0,20.8515682220459,12.505050659179688,12.111908064948189,10.991357983483208,0.4022501785716704,0.7892279381257256,0.8983050847457628
17453,waveform_context,Moirai 2.0,4096,1024,4096,1024,0.3396442234516144,0.16546697914600372,0.32533890940248966,0.16546697937883437,32,64,77.52182006835938,64.90772247314453,69.51510947942734,64.9077288210392,0.7032917264341374,0.042499999999999996,0.0,15.28061294555664,10.36494255065918,12.469383454904325,9.968753558833425,0.5016517003212352,0.6779418716245189,0.5925925925925926
17453,waveform_context,TimesFM,8192,256,8192,256,0.34390944242477417,0.1538195013999939,0.32555043627507985,0.1538195067550987,32,64,6.249673366546631,4.721466064453125,6.241330102086067,4.721465900540352,0.23435056050187308,0.08499999999999999,0.0,24.50425148010254,12.69444465637207,18.25646061816458,16.511299436375246,0.4481943870257408,0.9050852956793362,0.9206349206349206
17453,waveform_context,Chronos-2,8192,256,8192,256,0.32590100169181824,0.13864457607269287,0.30735358339734375,0.13864458387251943,32,64,12.676737785339355,8.877717971801758,10.765412479639053,8.877717077732086,0.3782837418170011,0.08499999999999999,0.0,20.295866012573242,11.05555534362793,12.196217668299772,11.064625866559087,0.42091306499959324,0.9287266277899897,0.9
17453,waveform_context,Moirai 2.0,8192,256,8192,256,0.32984471321105957,0.13949865102767944,0.31111941672861576,0.13949864427559078,32,64,63.586669921875,52.401031494140625,63.43079102039337,52.40103340148926,0.4798352088595518,0.08499999999999999,0.0,16.39491081237793,11.919540405273438,13.451867080870128,12.059523820877075,0.4443493577205179,1.0102228778543338,0.9814814814814815
17453,waveform_context,TimesFM,8192,512,8192,512,0.3450632691383362,0.1649826467037201,0.32928640069440007,0.16498264530673623,32,64,9.092122077941895,6.6720123291015625,9.04995197057724,6.672012284398079,0.2398157517459586,0.060104076400856535,0.0,27.602453231811523,13.867595672607422,21.767604737054732,17.131216923395794,0.5168965185844836,0.6676618551781396,0.5555555555555556
17453,waveform_context,Chronos-2,8192,512,8192,512,0.3241223692893982,0.14796315133571625,0.30820237286388874,0.14796314912382513,32,64,18.419702529907227,14.716614723205566,17.569104850292206,14.716614693403244,0.4732479760331595,0.060104076400856535,0.0,20.61031150817871,11.043010711669922,14.010728783077663,12.674444423781502,0.41751496921589826,0.7923358399241671,0.9
17453,waveform_context,Moirai 2.0,8192,512,8192,512,0.3302095830440521,0.15325459837913513,0.31471475143916905,0.153254599776119,32,64,81.34931182861328,73.30440521240234,81.33425235748291,73.30440759658813,0.7096556617187499,0.060104076400856535,0.0,14.592650413513184,10.121212005615234,13.027911946580216,11.317117094993591,0.4025010988133307,0.8433515233324291,0.9375
17453,waveform_context,TimesFM,8192,1024,8192,1024,0.34018877148628235,0.16163094341754913,0.3253244129009545,0.16163093561772257,32,64,15.28376579284668,11.604390144348145,15.278366178274155,11.604391545057297,0.4101697782224186,0.042499999999999996,0.0,33.4851188659668,15.595555305480957,28.381245005698432,20.634505516006833,0.5184530256087455,0.5810124414612587,0.5396825396825397
17453,waveform_context,Chronos-2,8192,1024,8192,1024,0.3295321464538574,0.14915065467357635,0.313587759854272,0.14915065746754408,32,64,50.98896408081055,40.434165954589844,50.32309079170227,40.43416768312454,0.574056420864421,0.042499999999999996,0.0,41.346614837646484,15.755319595336914,17.13086565529428,13.775474245955305,0.3906137956959701,0.7542440192573947,0.8448275862068966
17453,waveform_context,Moirai 2.0,8192,1024,8192,1024,0.3361399471759796,0.16109243035316467,0.3217998486943543,0.16109241941012442,32,64,79.85968780517578,68.3390884399414,73.42289301753044,68.33908766508102,0.7478941871093749,0.042499999999999996,0.0,21.051252365112305,11.310447692871094,14.467541264324653,11.614052606791985,0.47806919690258703,0.6875521151719559,0.58
